id	uta	2-a	2-b	2-c	2-d	2-e	2-f	2-g	2-h	2-i
1	4	0.099415205	0.125730994	0.112573099	0.099415205	0.138888889	0.125730994	0.125730994	0.08625731	0.08625731
2	6	0.124098124	0.085137085	0.176046176	0.098124098	0.124098124	0.085137085	0.085137085	0.085137085	0.137085137
3	7	0.111111111	0.124098124	0.098124098	0.137085137	0.085137085	0.15007215	0.072150072	0.085137085	0.137085137
4	8	0.08625731	0.073099415	0.08625731	0.152046784	0.165204678	0.112573099	0.112573099	0.125730994	0.08625731
5	9	0.114478114	0.114478114	0.099326599	0.114478114	0.084175084	0.114478114	0.099326599	0.144781145	0.114478114
6	10	0.08625731	0.125730994	0.08625731	0.08625731	0.217836257	0.08625731	0.125730994	0.073099415	0.112573099
7	11	0.191520468	0.073099415	0.08625731	0.073099415	0.152046784	0.138888889	0.073099415	0.125730994	0.08625731
8	12	0.152046784	0.08625731	0.112573099	0.152046784	0.112573099	0.08625731	0.125730994	0.099415205	0.073099415
9	14	0.125730994	0.073099415	0.138888889	0.125730994	0.112573099	0.073099415	0.099415205	0.099415205	0.152046784
10	15	0.15007215	0.072150072	0.098124098	0.137085137	0.085137085	0.085137085	0.189033189	0.085137085	0.098124098
11	18	0.112573099	0.125730994	0.152046784	0.099415205	0.112573099	0.073099415	0.099415205	0.125730994	0.099415205
12	19	0.191520468	0.125730994	0.073099415	0.112573099	0.112573099	0.112573099	0.08625731	0.099415205	0.08625731
13	20	0.08625731	0.112573099	0.125730994	0.08625731	0.073099415	0.112573099	0.125730994	0.138888889	0.138888889
14	21	0.085137085	0.137085137	0.163059163	0.072150072	0.085137085	0.111111111	0.163059163	0.098124098	0.085137085
15	22	0.099415205	0.08625731	0.165204678	0.191520468	0.099415205	0.08625731	0.112573099	0.073099415	0.08625731
16	23	0.100740741	0.087407407	0.087407407	0.207407407	0.074074074	0.127407407	0.114074074	0.087407407	0.114074074
17	24	0.125730994	0.073099415	0.08625731	0.165204678	0.165204678	0.073099415	0.138888889	0.073099415	0.099415205
18	27	0.124098124	0.111111111	0.072150072	0.072150072	0.085137085	0.072150072	0.124098124	0.15007215	0.189033189
19	28	0.099415205	0.112573099	0.099415205	0.112573099	0.08625731	0.165204678	0.073099415	0.138888889	0.112573099
20	30	0.085137085	0.124098124	0.111111111	0.137085137	0.072150072	0.124098124	0.085137085	0.085137085	0.176046176
21	31	0.085137085	0.15007215	0.072150072	0.15007215	0.072150072	0.085137085	0.176046176	0.098124098	0.111111111
22	32	0.072150072	0.137085137	0.098124098	0.111111111	0.098124098	0.111111111	0.111111111	0.085137085	0.176046176
23	33	0.099415205	0.073099415	0.125730994	0.165204678	0.112573099	0.099415205	0.08625731	0.073099415	0.165204678
24	34	0.125730994	0.073099415	0.112573099	0.152046784	0.073099415	0.099415205	0.125730994	0.138888889	0.099415205
25	35	0.137085137	0.111111111	0.085137085	0.098124098	0.072150072	0.072150072	0.176046176	0.163059163	0.085137085
26	37	0.098124098	0.111111111	0.085137085	0.111111111	0.085137085	0.098124098	0.137085137	0.072150072	0.202020202
27	39	0.125730994	0.08625731	0.073099415	0.099415205	0.08625731	0.099415205	0.138888889	0.08625731	0.204678363
28	40	0.111111111	0.085137085	0.111111111	0.292929293	0.085137085	0.072150072	0.085137085	0.072150072	0.085137085
29	41	0.138888889	0.112573099	0.138888889	0.112573099	0.073099415	0.099415205	0.073099415	0.073099415	0.178362573
30	42	0.099415205	0.08625731	0.191520468	0.244152047	0.08625731	0.073099415	0.073099415	0.073099415	0.073099415
31	43	0.138888889	0.08625731	0.165204678	0.112573099	0.112573099	0.08625731	0.073099415	0.125730994	0.099415205
32	44	0.138888889	0.112573099	0.08625731	0.112573099	0.08625731	0.073099415	0.073099415	0.138888889	0.178362573
33	46	0.111111111	0.137085137	0.098124098	0.072150072	0.111111111	0.163059163	0.15007215	0.072150072	0.085137085
34	47	0.137085137	0.085137085	0.111111111	0.098124098	0.111111111	0.098124098	0.137085137	0.085137085	0.137085137
35	48	0.138888889	0.112573099	0.073099415	0.125730994	0.08625731	0.112573099	0.099415205	0.125730994	0.125730994
36	49	0.138888889	0.08625731	0.073099415	0.165204678	0.112573099	0.08625731	0.08625731	0.073099415	0.178362573
37	51	0.074074074	0.074074074	0.100740741	0.114074074	0.087407407	0.127407407	0.087407407	0.154074074	0.180740741
38	53	0.099415205	0.08625731	0.125730994	0.138888889	0.08625731	0.073099415	0.125730994	0.073099415	0.191520468
39	54	0.230994152	0.073099415	0.08625731	0.125730994	0.08625731	0.152046784	0.073099415	0.08625731	0.08625731
40	55	0.099415205	0.125730994	0.178362573	0.073099415	0.152046784	0.099415205	0.112573099	0.073099415	0.08625731
41	56	0.152046784	0.08625731	0.112573099	0.138888889	0.073099415	0.152046784	0.073099415	0.073099415	0.138888889
42	57	0.099415205	0.138888889	0.112573099	0.073099415	0.099415205	0.125730994	0.125730994	0.125730994	0.099415205
43	58	0.08625731	0.08625731	0.08625731	0.191520468	0.152046784	0.152046784	0.08625731	0.08625731	0.073099415
44	59	0.125730994	0.08625731	0.112573099	0.099415205	0.08625731	0.178362573	0.08625731	0.099415205	0.125730994
45	60	0.124098124	0.111111111	0.163059163	0.085137085	0.098124098	0.111111111	0.111111111	0.124098124	0.072150072
46	61	0.178362573	0.152046784	0.099415205	0.08625731	0.099415205	0.099415205	0.08625731	0.099415205	0.099415205
47	62	0.112573099	0.099415205	0.073099415	0.178362573	0.112573099	0.08625731	0.165204678	0.073099415	0.099415205
48	63	0.165204678	0.073099415	0.125730994	0.125730994	0.099415205	0.099415205	0.08625731	0.073099415	0.152046784
49	64	0.111111111	0.189033189	0.111111111	0.098124098	0.085137085	0.137085137	0.098124098	0.072150072	0.098124098
50	65	0.137085137	0.085137085	0.137085137	0.15007215	0.072150072	0.098124098	0.085137085	0.085137085	0.15007215
51	66	0.152046784	0.073099415	0.138888889	0.099415205	0.099415205	0.099415205	0.08625731	0.08625731	0.165204678
52	67	0.085137085	0.098124098	0.163059163	0.124098124	0.098124098	0.085137085	0.124098124	0.111111111	0.111111111
53	68	0.085137085	0.163059163	0.124098124	0.098124098	0.124098124	0.098124098	0.137085137	0.085137085	0.085137085
54	69	0.073099415	0.073099415	0.244152047	0.125730994	0.08625731	0.099415205	0.099415205	0.08625731	0.112573099
55	70	0.112573099	0.099415205	0.178362573	0.08625731	0.204678363	0.073099415	0.08625731	0.073099415	0.08625731
56	71	0.08625731	0.191520468	0.08625731	0.138888889	0.138888889	0.08625731	0.099415205	0.099415205	0.073099415
57	72	0.08625731	0.152046784	0.138888889	0.191520468	0.073099415	0.08625731	0.08625731	0.099415205	0.08625731
58	73	0.138888889	0.08625731	0.099415205	0.152046784	0.099415205	0.099415205	0.073099415	0.152046784	0.099415205
59	74	0.138888889	0.112573099	0.08625731	0.138888889	0.099415205	0.112573099	0.08625731	0.099415205	0.125730994
60	75	0.111111111	0.124098124	0.176046176	0.098124098	0.137085137	0.124098124	0.072150072	0.085137085	0.072150072
61	76	0.15007215	0.124098124	0.098124098	0.124098124	0.085137085	0.137085137	0.098124098	0.072150072	0.111111111
62	77	0.111111111	0.137085137	0.085137085	0.072150072	0.137085137	0.072150072	0.085137085	0.098124098	0.202020202
63	78	0.096866097	0.084045584	0.160968661	0.10968661	0.122507123	0.084045584	0.10968661	0.10968661	0.122507123
64	80	0.072150072	0.124098124	0.111111111	0.163059163	0.072150072	0.098124098	0.15007215	0.111111111	0.098124098
65	81	0.191520468	0.073099415	0.073099415	0.125730994	0.073099415	0.152046784	0.073099415	0.099415205	0.138888889
66	82	0.165204678	0.099415205	0.099415205	0.08625731	0.08625731	0.178362573	0.08625731	0.08625731	0.112573099
67	83	0.137085137	0.072150072	0.15007215	0.227994228	0.098124098	0.072150072	0.072150072	0.085137085	0.085137085
68	84	0.15007215	0.085137085	0.085137085	0.15007215	0.111111111	0.124098124	0.111111111	0.098124098	0.085137085
69	85	0.138888889	0.099415205	0.08625731	0.08625731	0.152046784	0.112573099	0.125730994	0.08625731	0.112573099
70	86	0.124098124	0.085137085	0.305916306	0.072150072	0.085137085	0.072150072	0.085137085	0.098124098	0.072150072
71	87	0.098124098	0.085137085	0.111111111	0.085137085	0.085137085	0.15007215	0.124098124	0.137085137	0.124098124
72	88	0.152046784	0.08625731	0.08625731	0.073099415	0.099415205	0.152046784	0.099415205	0.138888889	0.112573099
73	89	0.178362573	0.08625731	0.099415205	0.073099415	0.08625731	0.08625731	0.138888889	0.099415205	0.152046784
74	90	0.178362573	0.08625731	0.08625731	0.125730994	0.112573099	0.08625731	0.112573099	0.099415205	0.112573099
75	91	0.10968661	0.10968661	0.276353276	0.084045584	0.071225071	0.071225071	0.071225071	0.10968661	0.096866097
76	92	0.165204678	0.138888889	0.099415205	0.08625731	0.073099415	0.08625731	0.125730994	0.112573099	0.112573099
77	93	0.10968661	0.084045584	0.135327635	0.096866097	0.148148148	0.084045584	0.096866097	0.10968661	0.135327635
78	94	0.152046784	0.112573099	0.138888889	0.08625731	0.099415205	0.08625731	0.073099415	0.125730994	0.125730994
79	95	0.087407407	0.140740741	0.074074074	0.114074074	0.167407407	0.127407407	0.114074074	0.074074074	0.100740741
80	96	0.163059163	0.124098124	0.085137085	0.098124098	0.085137085	0.072150072	0.111111111	0.137085137	0.124098124
81	97	0.111111111	0.137085137	0.072150072	0.085137085	0.137085137	0.085137085	0.15007215	0.124098124	0.098124098
82	98	0.112573099	0.165204678	0.073099415	0.073099415	0.099415205	0.073099415	0.138888889	0.08625731	0.178362573
83	99	0.112573099	0.191520468	0.08625731	0.073099415	0.073099415	0.099415205	0.125730994	0.073099415	0.165204678
84	100	0.072150072	0.189033189	0.111111111	0.111111111	0.072150072	0.15007215	0.085137085	0.085137085	0.124098124
85	101	0.15007215	0.098124098	0.085137085	0.085137085	0.137085137	0.072150072	0.137085137	0.098124098	0.137085137
86	102	0.10968661	0.084045584	0.122507123	0.084045584	0.096866097	0.096866097	0.135327635	0.160968661	0.10968661
87	103	0.08625731	0.112573099	0.112573099	0.152046784	0.08625731	0.152046784	0.099415205	0.099415205	0.099415205
88	104	0.112573099	0.125730994	0.073099415	0.099415205	0.112573099	0.125730994	0.138888889	0.112573099	0.099415205
89	105	0.178362573	0.073099415	0.08625731	0.08625731	0.112573099	0.138888889	0.099415205	0.138888889	0.08625731
90	106	0.124098124	0.111111111	0.124098124	0.098124098	0.15007215	0.111111111	0.072150072	0.085137085	0.124098124
91	107	0.257309942	0.073099415	0.08625731	0.08625731	0.112573099	0.08625731	0.099415205	0.099415205	0.099415205
92	108	0.191520468	0.08625731	0.152046784	0.073099415	0.099415205	0.08625731	0.073099415	0.112573099	0.125730994
93	109	0.08625731	0.099415205	0.099415205	0.165204678	0.178362573	0.073099415	0.112573099	0.08625731	0.099415205
94	110	0.138888889	0.112573099	0.112573099	0.08625731	0.099415205	0.099415205	0.138888889	0.099415205	0.112573099
95	111	0.08625731	0.138888889	0.099415205	0.152046784	0.099415205	0.08625731	0.099415205	0.099415205	0.138888889
96	112	0.073099415	0.138888889	0.125730994	0.08625731	0.191520468	0.073099415	0.099415205	0.138888889	0.073099415
97	113	0.138888889	0.08625731	0.08625731	0.073099415	0.08625731	0.125730994	0.08625731	0.08625731	0.230994152
98	114	0.111111111	0.098124098	0.085137085	0.072150072	0.098124098	0.15007215	0.202020202	0.072150072	0.111111111
99	115	0.124098124	0.072150072	0.176046176	0.098124098	0.085137085	0.072150072	0.098124098	0.176046176	0.098124098
100	116	0.073099415	0.217836257	0.073099415	0.138888889	0.099415205	0.08625731	0.08625731	0.125730994	0.099415205
101	117	0.112573099	0.178362573	0.073099415	0.073099415	0.08625731	0.099415205	0.099415205	0.191520468	0.08625731
102	118	0.138888889	0.138888889	0.112573099	0.099415205	0.112573099	0.073099415	0.08625731	0.125730994	0.112573099
103	119	0.099415205	0.125730994	0.125730994	0.152046784	0.08625731	0.099415205	0.112573099	0.08625731	0.112573099
104	120	0.071225071	0.071225071	0.212250712	0.071225071	0.096866097	0.173789174	0.096866097	0.135327635	0.071225071
105	121	0.112573099	0.073099415	0.073099415	0.217836257	0.125730994	0.125730994	0.08625731	0.073099415	0.112573099
106	122	0.08625731	0.217836257	0.08625731	0.125730994	0.125730994	0.073099415	0.099415205	0.08625731	0.099415205
107	123	0.152046784	0.125730994	0.125730994	0.112573099	0.099415205	0.112573099	0.073099415	0.08625731	0.112573099
108	124	0.098124098	0.098124098	0.085137085	0.098124098	0.085137085	0.137085137	0.163059163	0.111111111	0.124098124
109	125	0.098124098	0.111111111	0.111111111	0.085137085	0.124098124	0.085137085	0.215007215	0.098124098	0.072150072
110	126	0.112573099	0.08625731	0.08625731	0.165204678	0.08625731	0.099415205	0.165204678	0.08625731	0.112573099
111	127	0.085137085	0.085137085	0.085137085	0.111111111	0.098124098	0.124098124	0.215007215	0.085137085	0.111111111
112	128	0.124098124	0.072150072	0.072150072	0.137085137	0.124098124	0.15007215	0.072150072	0.15007215	0.098124098
113	129	0.100740741	0.194074074	0.114074074	0.114074074	0.114074074	0.100740741	0.087407407	0.100740741	0.074074074
114	130	0.073099415	0.152046784	0.112573099	0.099415205	0.112573099	0.08625731	0.08625731	0.178362573	0.099415205
115	132	0.244152047	0.08625731	0.099415205	0.112573099	0.099415205	0.099415205	0.08625731	0.099415205	0.073099415
116	133	0.085137085	0.124098124	0.098124098	0.137085137	0.098124098	0.111111111	0.15007215	0.111111111	0.085137085
117	134	0.230994152	0.099415205	0.08625731	0.099415205	0.073099415	0.08625731	0.125730994	0.125730994	0.073099415
118	136	0.099415205	0.073099415	0.165204678	0.165204678	0.099415205	0.125730994	0.073099415	0.112573099	0.08625731
119	137	0.098124098	0.098124098	0.189033189	0.098124098	0.098124098	0.15007215	0.072150072	0.072150072	0.124098124
120	139	0.176046176	0.111111111	0.098124098	0.137085137	0.098124098	0.098124098	0.072150072	0.137085137	0.072150072
121	140	0.098124098	0.15007215	0.098124098	0.072150072	0.098124098	0.072150072	0.176046176	0.137085137	0.098124098
122	141	0.152046784	0.073099415	0.099415205	0.073099415	0.073099415	0.112573099	0.230994152	0.099415205	0.08625731
123	142	0.098124098	0.085137085	0.27994228	0.072150072	0.098124098	0.085137085	0.137085137	0.072150072	0.072150072
124	143	0.152046784	0.138888889	0.073099415	0.099415205	0.08625731	0.08625731	0.152046784	0.08625731	0.125730994
125	144	0.111111111	0.227994228	0.072150072	0.085137085	0.124098124	0.085137085	0.111111111	0.085137085	0.098124098
126	145	0.104938272	0.132716049	0.160493827	0.077160494	0.091049383	0.091049383	0.11882716	0.104938272	0.11882716
127	146	0.099415205	0.125730994	0.099415205	0.08625731	0.08625731	0.112573099	0.165204678	0.073099415	0.152046784
128	147	0.085137085	0.072150072	0.098124098	0.137085137	0.085137085	0.163059163	0.15007215	0.085137085	0.124098124
129	148	0.15007215	0.085137085	0.072150072	0.124098124	0.072150072	0.072150072	0.163059163	0.124098124	0.137085137
130	149	0.125730994	0.178362573	0.08625731	0.08625731	0.099415205	0.073099415	0.112573099	0.125730994	0.112573099
131	151	0.073099415	0.08625731	0.152046784	0.152046784	0.073099415	0.099415205	0.152046784	0.099415205	0.112573099
132	152	0.073099415	0.073099415	0.08625731	0.125730994	0.08625731	0.125730994	0.073099415	0.138888889	0.217836257
133	154	0.163059163	0.072150072	0.098124098	0.137085137	0.098124098	0.072150072	0.098124098	0.111111111	0.15007215
134	156	0.12962963	0.144781145	0.084175084	0.12962963	0.114478114	0.099326599	0.099326599	0.084175084	0.114478114
135	157	0.253968254	0.098124098	0.098124098	0.098124098	0.085137085	0.072150072	0.072150072	0.124098124	0.098124098
136	158	0.165204678	0.073099415	0.112573099	0.099415205	0.112573099	0.112573099	0.112573099	0.112573099	0.099415205
137	160	0.092331768	0.106416275	0.078247261	0.106416275	0.078247261	0.106416275	0.205007825	0.13458529	0.092331768
138	161	0.138888889	0.08625731	0.152046784	0.08625731	0.08625731	0.138888889	0.08625731	0.112573099	0.112573099
139	163	0.098124098	0.098124098	0.227994228	0.072150072	0.15007215	0.098124098	0.072150072	0.085137085	0.098124098
140	164	0.112573099	0.112573099	0.152046784	0.08625731	0.152046784	0.073099415	0.099415205	0.08625731	0.125730994
141	165	0.148148148	0.10968661	0.10968661	0.084045584	0.084045584	0.096866097	0.148148148	0.10968661	0.10968661
142	166	0.10968661	0.071225071	0.071225071	0.148148148	0.135327635	0.135327635	0.148148148	0.071225071	0.10968661
143	168	0.204678363	0.08625731	0.125730994	0.08625731	0.099415205	0.099415205	0.08625731	0.08625731	0.125730994
144	169	0.191520468	0.112573099	0.112573099	0.125730994	0.099415205	0.08625731	0.073099415	0.08625731	0.112573099
145	170	0.112573099	0.138888889	0.112573099	0.08625731	0.112573099	0.099415205	0.08625731	0.125730994	0.125730994
146	171	0.138888889	0.125730994	0.112573099	0.08625731	0.099415205	0.08625731	0.08625731	0.112573099	0.152046784
147	172	0.08625731	0.08625731	0.099415205	0.112573099	0.125730994	0.125730994	0.138888889	0.112573099	0.112573099
148	173	0.163059163	0.098124098	0.15007215	0.085137085	0.098124098	0.111111111	0.098124098	0.085137085	0.111111111
149	174	0.08625731	0.08625731	0.191520468	0.112573099	0.08625731	0.073099415	0.073099415	0.112573099	0.178362573
150	175	0.072150072	0.072150072	0.124098124	0.111111111	0.111111111	0.072150072	0.098124098	0.202020202	0.137085137
151	176	0.099415205	0.152046784	0.073099415	0.073099415	0.099415205	0.073099415	0.138888889	0.125730994	0.165204678
152	177	0.073099415	0.073099415	0.125730994	0.125730994	0.178362573	0.073099415	0.125730994	0.125730994	0.099415205
153	178	0.112573099	0.165204678	0.073099415	0.165204678	0.112573099	0.112573099	0.08625731	0.073099415	0.099415205
154	179	0.08625731	0.099415205	0.138888889	0.099415205	0.204678363	0.08625731	0.08625731	0.073099415	0.125730994
155	180	0.099415205	0.073099415	0.099415205	0.125730994	0.125730994	0.138888889	0.099415205	0.099415205	0.138888889
156	181	0.098124098	0.072150072	0.098124098	0.124098124	0.085137085	0.15007215	0.124098124	0.111111111	0.137085137
157	182	0.099415205	0.125730994	0.112573099	0.112573099	0.125730994	0.099415205	0.125730994	0.112573099	0.08625731
158	183	0.073099415	0.138888889	0.08625731	0.08625731	0.112573099	0.08625731	0.165204678	0.08625731	0.165204678
159	184	0.08625731	0.099415205	0.099415205	0.08625731	0.112573099	0.099415205	0.112573099	0.08625731	0.217836257
160	185	0.08625731	0.099415205	0.099415205	0.191520468	0.073099415	0.165204678	0.08625731	0.099415205	0.099415205
161	186	0.125730994	0.165204678	0.112573099	0.073099415	0.073099415	0.073099415	0.099415205	0.08625731	0.191520468
162	187	0.08625731	0.08625731	0.099415205	0.125730994	0.125730994	0.125730994	0.165204678	0.073099415	0.112573099
163	188	0.112573099	0.112573099	0.099415205	0.112573099	0.08625731	0.08625731	0.08625731	0.138888889	0.165204678
164	189	0.085137085	0.111111111	0.15007215	0.124098124	0.098124098	0.098124098	0.098124098	0.072150072	0.163059163
165	190	0.08625731	0.270467836	0.08625731	0.099415205	0.073099415	0.08625731	0.08625731	0.099415205	0.112573099
166	191	0.165204678	0.138888889	0.099415205	0.112573099	0.099415205	0.099415205	0.073099415	0.08625731	0.125730994
167	192	0.099415205	0.178362573	0.08625731	0.08625731	0.165204678	0.08625731	0.138888889	0.08625731	0.073099415
168	193	0.111111111	0.124098124	0.085137085	0.098124098	0.085137085	0.085137085	0.202020202	0.098124098	0.111111111
169	195	0.085137085	0.098124098	0.098124098	0.085137085	0.085137085	0.111111111	0.15007215	0.15007215	0.137085137
170	197	0.124098124	0.111111111	0.15007215	0.111111111	0.098124098	0.085137085	0.085137085	0.111111111	0.124098124
171	198	0.073099415	0.165204678	0.073099415	0.125730994	0.073099415	0.073099415	0.099415205	0.112573099	0.204678363
172	200	0.152046784	0.112573099	0.099415205	0.165204678	0.08625731	0.08625731	0.099415205	0.073099415	0.125730994
173	201	0.112573099	0.125730994	0.099415205	0.152046784	0.165204678	0.08625731	0.08625731	0.08625731	0.08625731
174	202	0.125730994	0.099415205	0.073099415	0.112573099	0.099415205	0.08625731	0.112573099	0.125730994	0.165204678
