id	uta	3-a	3-b	3-c	3-d	3-e	3-f	3-g	3-h	3-i
1	4	0.138888889	0.112573099	0.099415205	0.191520468	0.08625731	0.138888889	0.073099415	0.08625731	0.073099415
2	6	0.085137085	0.085137085	0.137085137	0.085137085	0.189033189	0.098124098	0.111111111	0.111111111	0.098124098
3	7	0.124098124	0.098124098	0.085137085	0.111111111	0.124098124	0.124098124	0.085137085	0.15007215	0.098124098
4	8	0.178362573	0.08625731	0.099415205	0.08625731	0.08625731	0.073099415	0.178362573	0.099415205	0.112573099
5	9	0.099326599	0.084175084	0.114478114	0.084175084	0.114478114	0.12962963	0.114478114	0.175084175	0.084175084
6	10	0.099415205	0.112573099	0.125730994	0.152046784	0.099415205	0.099415205	0.112573099	0.08625731	0.112573099
7	11	0.08625731	0.08625731	0.099415205	0.125730994	0.099415205	0.08625731	0.152046784	0.178362573	0.08625731
8	12	0.191520468	0.08625731	0.08625731	0.099415205	0.08625731	0.112573099	0.125730994	0.112573099	0.099415205
9	14	0.099415205	0.112573099	0.112573099	0.125730994	0.112573099	0.099415205	0.138888889	0.08625731	0.112573099
10	15	0.176046176	0.098124098	0.163059163	0.085137085	0.072150072	0.124098124	0.098124098	0.085137085	0.098124098
11	18	0.112573099	0.178362573	0.073099415	0.165204678	0.099415205	0.099415205	0.073099415	0.073099415	0.125730994
12	19	0.138888889	0.099415205	0.178362573	0.08625731	0.08625731	0.099415205	0.112573099	0.125730994	0.073099415
13	20	0.08625731	0.08625731	0.125730994	0.138888889	0.112573099	0.099415205	0.08625731	0.138888889	0.125730994
14	21	0.072150072	0.15007215	0.072150072	0.124098124	0.124098124	0.072150072	0.085137085	0.124098124	0.176046176
15	22	0.112573099	0.138888889	0.138888889	0.08625731	0.099415205	0.138888889	0.08625731	0.099415205	0.099415205
16	23	0.207407407	0.087407407	0.100740741	0.087407407	0.074074074	0.140740741	0.087407407	0.114074074	0.100740741
17	24	0.178362573	0.08625731	0.125730994	0.08625731	0.099415205	0.073099415	0.08625731	0.125730994	0.138888889
18	27	0.072150072	0.124098124	0.072150072	0.072150072	0.085137085	0.202020202	0.098124098	0.072150072	0.202020202
19	28	0.138888889	0.073099415	0.112573099	0.125730994	0.178362573	0.08625731	0.08625731	0.125730994	0.073099415
20	30	0.137085137	0.085137085	0.15007215	0.098124098	0.111111111	0.137085137	0.072150072	0.098124098	0.111111111
21	31	0.124098124	0.098124098	0.098124098	0.085137085	0.098124098	0.163059163	0.072150072	0.085137085	0.176046176
22	32	0.111111111	0.085137085	0.098124098	0.085137085	0.124098124	0.137085137	0.111111111	0.111111111	0.137085137
23	33	0.191520468	0.073099415	0.08625731	0.112573099	0.08625731	0.165204678	0.125730994	0.073099415	0.08625731
24	34	0.152046784	0.08625731	0.152046784	0.099415205	0.08625731	0.099415205	0.112573099	0.073099415	0.138888889
25	35	0.085137085	0.085137085	0.098124098	0.137085137	0.15007215	0.098124098	0.098124098	0.085137085	0.163059163
26	37	0.072150072	0.098124098	0.15007215	0.098124098	0.085137085	0.227994228	0.111111111	0.072150072	0.085137085
27	39	0.099415205	0.073099415	0.125730994	0.112573099	0.08625731	0.230994152	0.099415205	0.073099415	0.099415205
28	40	0.253968254	0.085137085	0.124098124	0.085137085	0.072150072	0.137085137	0.098124098	0.072150072	0.072150072
29	41	0.138888889	0.099415205	0.112573099	0.073099415	0.099415205	0.165204678	0.099415205	0.099415205	0.112573099
30	42	0.217836257	0.112573099	0.138888889	0.073099415	0.08625731	0.073099415	0.08625731	0.08625731	0.125730994
31	43	0.125730994	0.125730994	0.099415205	0.178362573	0.073099415	0.099415205	0.08625731	0.125730994	0.08625731
32	44	0.112573099	0.08625731	0.099415205	0.152046784	0.099415205	0.152046784	0.08625731	0.125730994	0.08625731
33	46	0.072150072	0.137085137	0.098124098	0.163059163	0.15007215	0.072150072	0.072150072	0.098124098	0.137085137
34	47	0.085137085	0.124098124	0.111111111	0.111111111	0.124098124	0.085137085	0.085137085	0.124098124	0.15007215
35	48	0.112573099	0.08625731	0.204678363	0.112573099	0.112573099	0.08625731	0.08625731	0.08625731	0.112573099
36	49	0.112573099	0.073099415	0.08625731	0.099415205	0.073099415	0.191520468	0.125730994	0.112573099	0.125730994
37	51	0.140740741	0.074074074	0.100740741	0.100740741	0.100740741	0.154074074	0.087407407	0.140740741	0.100740741
38	53	0.165204678	0.08625731	0.08625731	0.125730994	0.099415205	0.152046784	0.073099415	0.08625731	0.125730994
39	54	0.099415205	0.08625731	0.152046784	0.125730994	0.073099415	0.152046784	0.073099415	0.165204678	0.073099415
40	55	0.073099415	0.112573099	0.125730994	0.165204678	0.08625731	0.08625731	0.112573099	0.08625731	0.152046784
41	56	0.073099415	0.073099415	0.125730994	0.08625731	0.099415205	0.178362573	0.099415205	0.178362573	0.08625731
42	57	0.112573099	0.099415205	0.08625731	0.099415205	0.191520468	0.099415205	0.112573099	0.099415205	0.099415205
43	58	0.165204678	0.099415205	0.08625731	0.125730994	0.073099415	0.112573099	0.138888889	0.112573099	0.08625731
44	59	0.08625731	0.073099415	0.138888889	0.125730994	0.08625731	0.125730994	0.099415205	0.178362573	0.08625731
45	60	0.085137085	0.137085137	0.137085137	0.111111111	0.137085137	0.072150072	0.124098124	0.098124098	0.098124098
46	61	0.08625731	0.073099415	0.165204678	0.099415205	0.073099415	0.191520468	0.099415205	0.08625731	0.125730994
47	62	0.178362573	0.073099415	0.138888889	0.099415205	0.099415205	0.125730994	0.125730994	0.08625731	0.073099415
48	63	0.112573099	0.099415205	0.138888889	0.138888889	0.073099415	0.138888889	0.112573099	0.099415205	0.08625731
49	64	0.085137085	0.098124098	0.072150072	0.176046176	0.137085137	0.124098124	0.072150072	0.163059163	0.072150072
50	65	0.137085137	0.098124098	0.085137085	0.137085137	0.111111111	0.202020202	0.072150072	0.072150072	0.085137085
51	66	0.125730994	0.138888889	0.138888889	0.099415205	0.08625731	0.138888889	0.099415205	0.08625731	0.08625731
52	67	0.137085137	0.253968254	0.098124098	0.072150072	0.098124098	0.085137085	0.085137085	0.085137085	0.085137085
53	68	0.15007215	0.085137085	0.085137085	0.072150072	0.240981241	0.085137085	0.111111111	0.085137085	0.085137085
54	69	0.112573099	0.244152047	0.08625731	0.08625731	0.073099415	0.099415205	0.073099415	0.138888889	0.08625731
55	70	0.073099415	0.138888889	0.073099415	0.204678363	0.073099415	0.08625731	0.152046784	0.112573099	0.08625731
56	71	0.08625731	0.112573099	0.073099415	0.152046784	0.152046784	0.125730994	0.125730994	0.08625731	0.08625731
57	72	0.178362573	0.125730994	0.099415205	0.08625731	0.165204678	0.08625731	0.073099415	0.099415205	0.08625731
58	73	0.08625731	0.08625731	0.125730994	0.125730994	0.073099415	0.099415205	0.125730994	0.178362573	0.099415205
59	74	0.099415205	0.099415205	0.112573099	0.099415205	0.125730994	0.152046784	0.112573099	0.08625731	0.112573099
60	75	0.111111111	0.111111111	0.072150072	0.15007215	0.111111111	0.098124098	0.111111111	0.137085137	0.098124098
61	76	0.124098124	0.111111111	0.124098124	0.072150072	0.072150072	0.176046176	0.137085137	0.098124098	0.085137085
62	77	0.124098124	0.085137085	0.137085137	0.085137085	0.098124098	0.176046176	0.137085137	0.072150072	0.085137085
63	78	0.10968661	0.160968661	0.084045584	0.160968661	0.096866097	0.122507123	0.096866097	0.096866097	0.071225071
64	80	0.111111111	0.111111111	0.085137085	0.072150072	0.124098124	0.176046176	0.072150072	0.072150072	0.176046176
65	81	0.125730994	0.099415205	0.125730994	0.099415205	0.125730994	0.178362573	0.073099415	0.099415205	0.073099415
66	82	0.08625731	0.112573099	0.138888889	0.125730994	0.099415205	0.112573099	0.08625731	0.152046784	0.08625731
67	83	0.266955267	0.072150072	0.111111111	0.124098124	0.124098124	0.072150072	0.085137085	0.072150072	0.072150072
68	84	0.137085137	0.098124098	0.085137085	0.137085137	0.124098124	0.111111111	0.111111111	0.111111111	0.085137085
69	85	0.08625731	0.112573099	0.244152047	0.099415205	0.08625731	0.073099415	0.099415205	0.099415205	0.099415205
70	86	0.111111111	0.27994228	0.098124098	0.098124098	0.072150072	0.072150072	0.085137085	0.098124098	0.085137085
71	87	0.085137085	0.111111111	0.253968254	0.163059163	0.085137085	0.072150072	0.072150072	0.072150072	0.085137085
72	88	0.099415205	0.099415205	0.152046784	0.165204678	0.099415205	0.073099415	0.073099415	0.138888889	0.099415205
73	89	0.073099415	0.073099415	0.244152047	0.112573099	0.112573099	0.099415205	0.073099415	0.08625731	0.125730994
74	90	0.099415205	0.08625731	0.204678363	0.112573099	0.073099415	0.099415205	0.152046784	0.08625731	0.08625731
75	91	0.160968661	0.225071225	0.071225071	0.122507123	0.096866097	0.096866097	0.071225071	0.071225071	0.084045584
76	92	0.08625731	0.08625731	0.152046784	0.112573099	0.112573099	0.138888889	0.08625731	0.112573099	0.112573099
77	93	0.096866097	0.135327635	0.135327635	0.122507123	0.071225071	0.096866097	0.135327635	0.084045584	0.122507123
78	94	0.112573099	0.138888889	0.08625731	0.125730994	0.125730994	0.099415205	0.125730994	0.073099415	0.112573099
79	95	0.154074074	0.074074074	0.087407407	0.114074074	0.087407407	0.114074074	0.114074074	0.087407407	0.167407407
80	96	0.137085137	0.098124098	0.111111111	0.176046176	0.085137085	0.098124098	0.072150072	0.085137085	0.137085137
81	97	0.098124098	0.111111111	0.072150072	0.15007215	0.072150072	0.098124098	0.15007215	0.072150072	0.176046176
82	98	0.08625731	0.08625731	0.112573099	0.204678363	0.152046784	0.099415205	0.073099415	0.08625731	0.099415205
83	99	0.08625731	0.073099415	0.099415205	0.152046784	0.165204678	0.08625731	0.099415205	0.073099415	0.165204678
84	100	0.124098124	0.098124098	0.085137085	0.085137085	0.15007215	0.124098124	0.072150072	0.15007215	0.111111111
85	101	0.085137085	0.085137085	0.111111111	0.098124098	0.085137085	0.15007215	0.137085137	0.072150072	0.176046176
86	102	0.096866097	0.173789174	0.096866097	0.096866097	0.084045584	0.096866097	0.122507123	0.10968661	0.122507123
87	103	0.112573099	0.125730994	0.073099415	0.073099415	0.152046784	0.112573099	0.125730994	0.152046784	0.073099415
88	104	0.073099415	0.073099415	0.112573099	0.125730994	0.08625731	0.073099415	0.138888889	0.178362573	0.138888889
89	105	0.112573099	0.073099415	0.138888889	0.138888889	0.08625731	0.112573099	0.099415205	0.152046784	0.08625731
90	106	0.124098124	0.085137085	0.124098124	0.124098124	0.085137085	0.085137085	0.124098124	0.124098124	0.124098124
91	107	0.099415205	0.08625731	0.099415205	0.230994152	0.112573099	0.08625731	0.099415205	0.073099415	0.112573099
92	108	0.073099415	0.152046784	0.165204678	0.152046784	0.08625731	0.099415205	0.099415205	0.073099415	0.099415205
93	109	0.178362573	0.099415205	0.099415205	0.099415205	0.073099415	0.08625731	0.099415205	0.125730994	0.138888889
94	110	0.073099415	0.138888889	0.138888889	0.099415205	0.099415205	0.099415205	0.099415205	0.138888889	0.112573099
95	111	0.125730994	0.099415205	0.08625731	0.073099415	0.152046784	0.165204678	0.112573099	0.099415205	0.08625731
96	112	0.073099415	0.125730994	0.073099415	0.125730994	0.138888889	0.099415205	0.152046784	0.08625731	0.125730994
97	113	0.073099415	0.073099415	0.204678363	0.099415205	0.08625731	0.178362573	0.073099415	0.08625731	0.125730994
98	114	0.085137085	0.085137085	0.15007215	0.072150072	0.085137085	0.072150072	0.124098124	0.124098124	0.202020202
99	115	0.072150072	0.163059163	0.15007215	0.124098124	0.098124098	0.098124098	0.072150072	0.111111111	0.111111111
100	116	0.125730994	0.073099415	0.08625731	0.099415205	0.073099415	0.138888889	0.112573099	0.099415205	0.191520468
101	117	0.08625731	0.125730994	0.099415205	0.073099415	0.099415205	0.178362573	0.165204678	0.099415205	0.073099415
102	118	0.125730994	0.08625731	0.125730994	0.125730994	0.099415205	0.125730994	0.073099415	0.125730994	0.112573099
103	119	0.08625731	0.112573099	0.073099415	0.073099415	0.08625731	0.296783626	0.08625731	0.08625731	0.099415205
104	120	0.071225071	0.212250712	0.084045584	0.071225071	0.071225071	0.071225071	0.096866097	0.237891738	0.084045584
105	121	0.204678363	0.08625731	0.08625731	0.165204678	0.073099415	0.073099415	0.125730994	0.112573099	0.073099415
106	122	0.165204678	0.08625731	0.073099415	0.099415205	0.152046784	0.125730994	0.08625731	0.073099415	0.138888889
107	123	0.08625731	0.099415205	0.178362573	0.165204678	0.125730994	0.08625731	0.099415205	0.08625731	0.073099415
108	124	0.098124098	0.085137085	0.124098124	0.124098124	0.085137085	0.085137085	0.098124098	0.085137085	0.215007215
109	125	0.085137085	0.111111111	0.124098124	0.098124098	0.163059163	0.085137085	0.124098124	0.085137085	0.124098124
110	126	0.125730994	0.08625731	0.099415205	0.099415205	0.073099415	0.152046784	0.099415205	0.125730994	0.138888889
111	127	0.072150072	0.085137085	0.111111111	0.072150072	0.072150072	0.215007215	0.072150072	0.137085137	0.163059163
112	128	0.111111111	0.111111111	0.124098124	0.124098124	0.111111111	0.111111111	0.085137085	0.15007215	0.072150072
113	129	0.087407407	0.207407407	0.074074074	0.127407407	0.100740741	0.114074074	0.100740741	0.100740741	0.087407407
114	130	0.08625731	0.099415205	0.112573099	0.08625731	0.073099415	0.165204678	0.073099415	0.125730994	0.178362573
115	132	0.138888889	0.08625731	0.152046784	0.112573099	0.125730994	0.08625731	0.073099415	0.125730994	0.099415205
116	133	0.098124098	0.085137085	0.072150072	0.111111111	0.189033189	0.124098124	0.072150072	0.137085137	0.111111111
117	134	0.08625731	0.08625731	0.099415205	0.112573099	0.165204678	0.138888889	0.08625731	0.125730994	0.099415205
118	136	0.165204678	0.08625731	0.08625731	0.138888889	0.112573099	0.125730994	0.073099415	0.125730994	0.08625731
119	137	0.124098124	0.111111111	0.085137085	0.137085137	0.137085137	0.098124098	0.072150072	0.15007215	0.085137085
120	139	0.163059163	0.085137085	0.15007215	0.137085137	0.111111111	0.085137085	0.072150072	0.098124098	0.098124098
121	140	0.072150072	0.15007215	0.137085137	0.072150072	0.137085137	0.098124098	0.085137085	0.072150072	0.176046176
122	141	0.073099415	0.08625731	0.204678363	0.138888889	0.125730994	0.073099415	0.073099415	0.099415205	0.125730994
123	142	0.085137085	0.227994228	0.098124098	0.124098124	0.098124098	0.085137085	0.072150072	0.085137085	0.124098124
124	143	0.08625731	0.073099415	0.178362573	0.08625731	0.08625731	0.112573099	0.073099415	0.073099415	0.230994152
125	144	0.085137085	0.085137085	0.098124098	0.072150072	0.240981241	0.124098124	0.098124098	0.072150072	0.124098124
126	145	0.091049383	0.104938272	0.104938272	0.104938272	0.077160494	0.146604938	0.077160494	0.11882716	0.174382716
127	146	0.073099415	0.099415205	0.230994152	0.112573099	0.099415205	0.099415205	0.073099415	0.099415205	0.112573099
128	147	0.124098124	0.098124098	0.137085137	0.098124098	0.072150072	0.163059163	0.085137085	0.137085137	0.085137085
129	148	0.098124098	0.072150072	0.111111111	0.072150072	0.098124098	0.176046176	0.111111111	0.072150072	0.189033189
130	149	0.073099415	0.073099415	0.099415205	0.138888889	0.217836257	0.125730994	0.08625731	0.073099415	0.112573099
131	151	0.138888889	0.165204678	0.073099415	0.099415205	0.099415205	0.138888889	0.08625731	0.073099415	0.125730994
132	152	0.112573099	0.125730994	0.112573099	0.125730994	0.125730994	0.138888889	0.073099415	0.099415205	0.08625731
133	154	0.15007215	0.111111111	0.098124098	0.163059163	0.085137085	0.085137085	0.111111111	0.072150072	0.124098124
134	156	0.099326599	0.099326599	0.099326599	0.15993266	0.099326599	0.12962963	0.114478114	0.084175084	0.114478114
135	157	0.098124098	0.124098124	0.15007215	0.163059163	0.124098124	0.085137085	0.072150072	0.085137085	0.098124098
136	158	0.099415205	0.152046784	0.08625731	0.112573099	0.08625731	0.08625731	0.125730994	0.112573099	0.138888889
137	160	0.078247261	0.106416275	0.106416275	0.092331768	0.092331768	0.092331768	0.120500782	0.092331768	0.219092332
138	161	0.099415205	0.138888889	0.099415205	0.152046784	0.099415205	0.125730994	0.099415205	0.112573099	0.073099415
139	163	0.137085137	0.15007215	0.111111111	0.137085137	0.085137085	0.072150072	0.137085137	0.098124098	0.072150072
140	164	0.112573099	0.152046784	0.138888889	0.152046784	0.08625731	0.08625731	0.112573099	0.08625731	0.073099415
141	165	0.10968661	0.096866097	0.148148148	0.10968661	0.084045584	0.10968661	0.071225071	0.084045584	0.186609687
142	166	0.135327635	0.084045584	0.122507123	0.084045584	0.071225071	0.084045584	0.135327635	0.135327635	0.148148148
143	168	0.073099415	0.099415205	0.138888889	0.152046784	0.073099415	0.08625731	0.112573099	0.112573099	0.152046784
144	169	0.125730994	0.112573099	0.165204678	0.099415205	0.112573099	0.112573099	0.112573099	0.08625731	0.073099415
145	170	0.112573099	0.08625731	0.073099415	0.099415205	0.099415205	0.165204678	0.152046784	0.125730994	0.08625731
146	171	0.112573099	0.112573099	0.112573099	0.099415205	0.099415205	0.191520468	0.08625731	0.099415205	0.08625731
147	172	0.08625731	0.112573099	0.125730994	0.073099415	0.08625731	0.125730994	0.152046784	0.125730994	0.112573099
148	173	0.124098124	0.189033189	0.111111111	0.098124098	0.085137085	0.137085137	0.085137085	0.085137085	0.085137085
149	174	0.138888889	0.152046784	0.112573099	0.112573099	0.099415205	0.138888889	0.073099415	0.073099415	0.099415205
150	175	0.124098124	0.137085137	0.111111111	0.098124098	0.111111111	0.124098124	0.098124098	0.098124098	0.098124098
151	176	0.08625731	0.099415205	0.165204678	0.099415205	0.138888889	0.073099415	0.073099415	0.099415205	0.165204678
152	177	0.138888889	0.112573099	0.099415205	0.08625731	0.099415205	0.08625731	0.204678363	0.08625731	0.08625731
153	178	0.165204678	0.073099415	0.08625731	0.099415205	0.099415205	0.204678363	0.08625731	0.073099415	0.112573099
154	179	0.138888889	0.08625731	0.08625731	0.08625731	0.073099415	0.178362573	0.165204678	0.08625731	0.099415205
155	180	0.112573099	0.099415205	0.099415205	0.112573099	0.073099415	0.138888889	0.152046784	0.112573099	0.099415205
156	181	0.137085137	0.15007215	0.085137085	0.098124098	0.072150072	0.137085137	0.111111111	0.098124098	0.111111111
157	182	0.112573099	0.099415205	0.138888889	0.191520468	0.08625731	0.08625731	0.125730994	0.08625731	0.073099415
158	183	0.125730994	0.08625731	0.099415205	0.08625731	0.099415205	0.112573099	0.138888889	0.112573099	0.138888889
159	184	0.099415205	0.08625731	0.099415205	0.099415205	0.08625731	0.191520468	0.112573099	0.112573099	0.112573099
160	185	0.152046784	0.125730994	0.125730994	0.073099415	0.099415205	0.152046784	0.099415205	0.08625731	0.08625731
161	186	0.099415205	0.112573099	0.125730994	0.073099415	0.08625731	0.178362573	0.073099415	0.125730994	0.125730994
162	187	0.099415205	0.112573099	0.125730994	0.138888889	0.08625731	0.073099415	0.152046784	0.073099415	0.138888889
163	188	0.152046784	0.112573099	0.099415205	0.165204678	0.08625731	0.125730994	0.08625731	0.08625731	0.08625731
164	189	0.189033189	0.111111111	0.072150072	0.085137085	0.111111111	0.111111111	0.111111111	0.098124098	0.111111111
165	190	0.08625731	0.099415205	0.08625731	0.112573099	0.244152047	0.08625731	0.08625731	0.08625731	0.112573099
166	191	0.125730994	0.08625731	0.152046784	0.073099415	0.165204678	0.125730994	0.08625731	0.099415205	0.08625731
167	192	0.099415205	0.125730994	0.099415205	0.099415205	0.125730994	0.138888889	0.138888889	0.08625731	0.08625731
168	193	0.098124098	0.085137085	0.098124098	0.085137085	0.085137085	0.124098124	0.072150072	0.072150072	0.27994228
169	195	0.085137085	0.085137085	0.176046176	0.098124098	0.111111111	0.098124098	0.085137085	0.124098124	0.137085137
170	197	0.124098124	0.163059163	0.137085137	0.098124098	0.085137085	0.163059163	0.085137085	0.072150072	0.072150072
171	198	0.099415205	0.073099415	0.112573099	0.073099415	0.165204678	0.204678363	0.08625731	0.073099415	0.112573099
172	200	0.138888889	0.138888889	0.165204678	0.099415205	0.08625731	0.099415205	0.073099415	0.112573099	0.08625731
173	201	0.178362573	0.099415205	0.08625731	0.165204678	0.08625731	0.112573099	0.099415205	0.099415205	0.073099415
174	202	0.112573099	0.099415205	0.125730994	0.112573099	0.138888889	0.138888889	0.08625731	0.099415205	0.08625731
